density, u velocity, v velocity, pressure, Mach, Temperature, x_points, y_points, z_points
0.41807, 186.866, 0.009826, 86322.6, 0.34756, 719.438, 0.00995025, 0.0123762, 0.0
0.418062, 186.874, 0.0292039, 86320.6, 0.347574, 719.436, 0.00995025, 0.0371287, 0.0
0.418046, 186.888, 0.0480957, 86316.9, 0.347602, 719.432, 0.00995025, 0.0618812, 0.0
0.418023, 186.909, 0.0665173, 86311.3, 0.347642, 719.425, 0.00995025, 0.0866337, 0.0
0.417992, 186.936, 0.0843984, 86304, 0.347695, 719.417, 0.00995025, 0.111386, 0.0
0.417955, 186.97, 0.101694, 86294.9, 0.34776, 719.407, 0.00995025, 0.136139, 0.0
0.41791, 187.009, 0.118368, 86284.3, 0.347836, 719.394, 0.00995025, 0.160891, 0.0
0.417859, 187.054, 0.134397, 86272.1, 0.347924, 719.381, 0.00995025, 0.185644, 0.0
0.417802, 187.105, 0.149766, 86258.4, 0.348022, 719.365, 0.00995025, 0.210396, 0.0
0.417738, 187.161, 0.164467, 86243.3, 0.34813, 719.348, 0.00995025, 0.235149, 0.0
0.417669, 187.222, 0.178499, 86226.7, 0.348248, 719.329, 0.00995025, 0.259901, 0.0
0.417595, 187.288, 0.191866, 86208.9, 0.348376, 719.308, 0.00995025, 0.284653, 0.0
0.417515, 187.359, 0.204577, 86189.8, 0.348512, 719.286, 0.00995025, 0.309406, 0.0
0.417431, 187.434, 0.216641, 86169.6, 0.348657, 719.263, 0.00995025, 0.334158, 0.0
0.417341, 187.513, 0.228074, 86148.2, 0.34881, 719.239, 0.00995025, 0.358911, 0.0
0.417247, 187.595, 0.23889, 86125.8, 0.348971, 719.213, 0.00995025, 0.383663, 0.0
0.41715, 187.682, 0.249107, 86102.3, 0.349138, 719.186, 0.00995025, 0.408416, 0.0
0.417048, 187.772, 0.25874, 86077.9, 0.349312, 719.158, 0.00995025, 0.433168, 0.0
0.416942, 187.865, 0.267809, 86052.7, 0.349493, 719.129, 0.00995025, 0.457921, 0.0
0.416833, 187.962, 0.276331, 86026.5, 0.34968, 719.099, 0.00995025, 0.482673, 0.0
0.41672, 188.061, 0.284324, 85999.6, 0.349872, 719.068, 0.00995025, 0.507426, 0.0
0.416605, 188.163, 0.291806, 85972, 0.35007, 719.036, 0.00995025, 0.532178, 0.0
0.416487, 188.268, 0.298794, 85943.7, 0.350273, 719.003, 0.00995025, 0.556931, 0.0
0.416366, 188.375, 0.305305, 85914.7, 0.35048, 718.97, 0.00995025, 0.581683, 0.0
0.416242, 188.484, 0.311354, 85885.1, 0.350692, 718.935, 0.00995025, 0.606436, 0.0
0.416116, 188.596, 0.316958, 85855, 0.350908, 718.9, 0.00995025, 0.631188, 0.0
0.415988, 188.709, 0.32213, 85824.3, 0.351128, 718.865, 0.00995025, 0.655941, 0.0
0.415859, 188.824, 0.326884, 85793.2, 0.351351, 718.828, 0.00995025, 0.680693, 0.0
0.415727, 188.941, 0.331234, 85761.6, 0.351577, 718.792, 0.00995025, 0.705446, 0.0
0.415594, 189.059, 0.335192, 85729.7, 0.351807, 718.754, 0.00995025, 0.730198, 0.0
0.415459, 189.179, 0.338771, 85697.4, 0.352039, 718.716, 0.00995025, 0.75495, 0.0
0.415323, 189.3, 0.34198, 85664.7, 0.352273, 718.678, 0.00995025, 0.779703, 0.0
0.415185, 189.422, 0.34483, 85631.8, 0.35251, 718.64, 0.00995025, 0.804455, 0.0
0.415047, 189.545, 0.347332, 85598.6, 0.352748, 718.601, 0.00995025, 0.829208, 0.0
0.414908, 189.669, 0.349494, 85565.2, 0.352989, 718.561, 0.00995025, 0.85396, 0.0
0.414767, 189.794, 0.351324, 85531.6, 0.35323, 718.522, 0.00995025, 0.878713, 0.0
0.414627, 189.919, 0.352831, 85497.8, 0.353474, 718.482, 0.00995025, 0.903465, 0.0
0.414486, 190.045, 0.354023, 85463.9, 0.353718, 718.442, 0.00995025, 0.928218, 0.0
0.414344, 190.171, 0.354905, 85429.9, 0.353963, 718.401, 0.00995025, 0.95297, 0.0
0.414202, 190.298, 0.355486, 85395.8, 0.354209, 718.361, 0.00995025, 0.977723, 0.0
0.41406, 190.425, 0.35577, 85361.7, 0.354455, 718.32, 0.00995025, 1.00248, 0.0
0.413918, 190.552, 0.355765, 85327.6, 0.354701, 718.28, 0.00995025, 1.02723, 0.0
0.413776, 190.679, 0.355475, 85293.5, 0.354948, 718.239, 0.00995025, 1.05198, 0.0
0.413634, 190.806, 0.354906, 85259.4, 0.355194, 718.198, 0.00995025, 1.07673, 0.0
0.413492, 190.933, 0.354063, 85225.4, 0.35544, 718.157, 0.00995025, 1.10149, 0.0
0.413351, 191.059, 0.35295, 85191.5, 0.355685, 718.117, 0.00995025, 1.12624, 0.0
0.413211, 191.185, 0.351573, 85157.7, 0.35593, 718.076, 0.00995025, 1.15099, 0.0
0.413071, 191.311, 0.349935, 85124, 0.356174, 718.036, 0.00995025, 1.17574, 0.0
0.412931, 191.436, 0.34804, 85090.5, 0.356417, 717.995, 0.00995025, 1.2005, 0.0
0.412793, 191.56, 0.345893, 85057.2, 0.356658, 717.955, 0.00995025, 1.22525, 0.0
0.412655, 191.684, 0.343498, 85024.2, 0.356898, 717.915, 0.00995025, 1.25, 0.0
0.412519, 191.806, 0.340858, 84991.3, 0.357137, 717.875, 0.00995025, 1.27475, 0.0
0.412383, 191.928, 0.337977, 84958.7, 0.357373, 717.836, 0.00995025, 1.2995, 0.0
0.412249, 192.049, 0.33486, 84926.5, 0.357608, 717.796, 0.00995025, 1.32426, 0.0
0.412116, 192.169, 0.331508, 84894.5, 0.357841, 717.757, 0.00995025, 1.34901, 0.0
0.411985, 192.287, 0.327927, 84862.8, 0.358071, 717.719, 0.00995025, 1.37376, 0.0
0.411855, 192.405, 0.32412, 84831.5, 0.358299, 717.681, 0.00995025, 1.39851, 0.0
0.411726, 192.521, 0.32009, 84800.6, 0.358525, 717.643, 0.00995025, 1.42327, 0.0
0.4116, 192.635, 0.315842, 84770.1, 0.358747, 717.605, 0.00995025, 1.44802, 0.0
0.411474, 192.748, 0.311378, 84739.9, 0.358967, 717.568, 0.00995025, 1.47277, 0.0
0.411351, 192.86, 0.306702, 84710.3, 0.359183, 717.532, 0.00995025, 1.49752, 0.0
0.41123, 192.969, 0.301818, 84681, 0.359397, 717.496, 0.00995025, 1.52228, 0.0
0.411111, 193.077, 0.296729, 84652.3, 0.359607, 717.461, 0.00995025, 1.54703, 0.0
0.410993, 193.183, 0.29144, 84624, 0.359813, 717.426, 0.00995025, 1.57178, 0.0
0.410878, 193.288, 0.285955, 84596.3, 0.360016, 717.391, 0.00995025, 1.59653, 0.0
0.410766, 193.39, 0.280276, 84569.1, 0.360215, 717.358, 0.00995025, 1.62129, 0.0
0.410655, 193.49, 0.274408, 84542.5, 0.36041, 717.325, 0.00995025, 1.64604, 0.0
0.410547, 193.588, 0.268355, 84516.4, 0.360601, 717.292, 0.00995025, 1.67079, 0.0
0.410441, 193.684, 0.262122, 84490.9, 0.360788, 717.261, 0.00995025, 1.69554, 0.0
0.410338, 193.778, 0.255711, 84466, 0.36097, 717.23, 0.00995025, 1.7203, 0.0
0.410238, 193.87, 0.249127, 84441.8, 0.361148, 717.2, 0.00995025, 1.74505, 0.0
0.41014, 193.959, 0.242375, 84418.2, 0.361321, 717.17, 0.00995025, 1.7698, 0.0
0.410045, 194.045, 0.235459, 84395.2, 0.36149, 717.141, 0.00995025, 1.79455, 0.0
0.409952, 194.129, 0.228383, 84372.9, 0.361653, 717.114, 0.00995025, 1.81931, 0.0
0.409863, 194.211, 0.221152, 84351.3, 0.361812, 717.087, 0.00995025, 1.84406, 0.0
0.409776, 194.29, 0.213771, 84330.4, 0.361966, 717.06, 0.00995025, 1.86881, 0.0
0.409692, 194.366, 0.206243, 84310.2, 0.362114, 717.035, 0.00995025, 1.89356, 0.0
0.409612, 194.439, 0.198574, 84290.8, 0.362257, 717.011, 0.00995025, 1.91832, 0.0
0.409534, 194.51, 0.190768, 84272.1, 0.362395, 716.987, 0.00995025, 1.94307, 0.0
0.40946, 194.578, 0.182831, 84254.1, 0.362527, 716.965, 0.00995025, 1.96782, 0.0
0.409389, 194.643, 0.174767, 84236.9, 0.362653, 716.943, 0.00995025, 1.99257, 0.0
0.409321, 194.705, 0.166581, 84220.5, 0.362774, 716.922, 0.00995025, 2.01733, 0.0
0.409256, 194.764, 0.158279, 84204.9, 0.362889, 716.903, 0.00995025, 2.04208, 0.0
0.409195, 194.82, 0.149865, 84190.1, 0.362998, 716.884, 0.00995025, 2.06683, 0.0
0.409137, 194.873, 0.141345, 84176.1, 0.363101, 716.866, 0.00995025, 2.09158, 0.0
0.409082, 194.923, 0.132725, 84162.9, 0.363199, 716.85, 0.00995025, 2.11634, 0.0
0.409031, 194.97, 0.124009, 84150.5, 0.36329, 716.834, 0.00995025, 2.14109, 0.0
0.408984, 195.013, 0.115203, 84139, 0.363374, 716.819, 0.00995025, 2.16584, 0.0
0.408939, 195.054, 0.106313, 84128.4, 0.363453, 716.806, 0.00995025, 2.19059, 0.0
0.408899, 195.091, 0.097345, 84118.6, 0.363525, 716.794, 0.00995025, 2.21535, 0.0
0.408862, 195.124, 0.0883042, 84109.7, 0.363591, 716.782, 0.00995025, 2.2401, 0.0
0.408829, 195.155, 0.0791967, 84101.6, 0.363651, 716.772, 0.00995025, 2.26485, 0.0
0.408799, 195.182, 0.0700288, 84094.4, 0.363704, 716.763, 0.00995025, 2.2896, 0.0
0.408773, 195.206, 0.0608065, 84088.1, 0.36375, 716.755, 0.00995025, 2.31436, 0.0
0.408751, 195.227, 0.0515364, 84082.7, 0.36379, 716.748, 0.00995025, 2.33911, 0.0
0.408732, 195.244, 0.0422249, 84078.2, 0.363823, 716.742, 0.00995025, 2.36386, 0.0
0.408717, 195.257, 0.0328789, 84074.6, 0.36385, 716.738, 0.00995025, 2.38861, 0.0
0.408706, 195.268, 0.0235054, 84071.9, 0.36387, 716.734, 0.00995025, 2.41337, 0.0
0.408698, 195.274, 0.0141119, 84070.1, 0.363883, 716.732, 0.00995025, 2.43812, 0.0
0.408695, 195.278, 0.00470555, 84069.2, 0.36389, 716.731, 0.00995025, 2.46287, 0.0
0.573281, 87.5579, 0.0145579, 120463, 0.161432, 732.157, 0.0298507, 0.0123762, 0.0
0.573272, 87.5634, 0.0433352, 120461, 0.161442, 732.156, 0.0298507, 0.0371287, 0.0
0.573256, 87.5732, 0.0714621, 120457, 0.16146, 732.155, 0.0298507, 0.0618812, 0.0
0.573232, 87.5875, 0.0988996, 120452, 0.161486, 732.154, 0.0298507, 0.0866337, 0.0
0.5732, 87.6061, 0.125543, 120445, 0.161521, 732.152, 0.0298507, 0.111386, 0.0
0.57316, 87.6288, 0.151321, 120436, 0.161563, 732.15, 0.0298507, 0.136139, 0.0
0.573114, 87.6556, 0.17618, 120426, 0.161613, 732.147, 0.0298507, 0.160891, 0.0
0.573061, 87.6862, 0.200084, 120415, 0.16167, 732.144, 0.0298507, 0.185644, 0.0
0.573001, 87.7205, 0.223008, 120401, 0.161734, 732.14, 0.0298507, 0.210396, 0.0
0.572935, 87.7582, 0.244942, 120387, 0.161804, 732.136, 0.0298507, 0.235149, 0.0
0.572863, 87.7993, 0.265883, 120371, 0.16188, 732.132, 0.0298507, 0.259901, 0.0
0.572785, 87.8436, 0.285837, 120354, 0.161962, 732.127, 0.0298507, 0.284653, 0.0
0.572702, 87.891, 0.304814, 120336, 0.16205, 732.122, 0.0298507, 0.309406, 0.0
0.572613, 87.9411, 0.322831, 120316, 0.162144, 732.117, 0.0298507, 0.334158, 0.0
0.57252, 87.9941, 0.339909, 120296, 0.162242, 732.111, 0.0298507, 0.358911, 0.0
0.572422, 88.0495, 0.356069, 120274, 0.162345, 732.105, 0.0298507, 0.383663, 0.0
0.57232, 88.1075, 0.371336, 120251, 0.162453, 732.098, 0.0298507, 0.408416, 0.0
0.572214, 88.1677, 0.385736, 120228, 0.162565, 732.092, 0.0298507, 0.433168, 0.0
0.572103, 88.2301, 0.399296, 120204, 0.16268, 732.085, 0.0298507, 0.457921, 0.0
0.571989, 88.2945, 0.412041, 120179, 0.1628, 732.078, 0.0298507, 0.482673, 0.0
0.571872, 88.3608, 0.423999, 120153, 0.162923, 732.07, 0.0298507, 0.507426, 0.0
0.571751, 88.4289, 0.435195, 120126, 0.16305, 732.062, 0.0298507, 0.532178, 0.0
0.571628, 88.4988, 0.445655, 120099, 0.16318, 732.054, 0.0298507, 0.556931, 0.0
0.571502, 88.5702, 0.455404, 120071, 0.163312, 732.046, 0.0298507, 0.581683, 0.0
0.571373, 88.643, 0.464466, 120042, 0.163448, 732.038, 0.0298507, 0.606436, 0.0
0.571241, 88.7173, 0.472863, 120013, 0.163586, 732.029, 0.0298507, 0.631188, 0.0
0.571108, 88.7928, 0.480616, 119984, 0.163726, 732.02, 0.0298507, 0.655941, 0.0
0.570972, 88.8694, 0.487748, 119954, 0.163868, 732.011, 0.0298507, 0.680693, 0.0
0.570834, 88.9472, 0.494276, 119924, 0.164013, 732.002, 0.0298507, 0.705446, 0.0
0.570695, 89.0259, 0.500221, 119893, 0.164159, 731.993, 0.0298507, 0.730198, 0.0
0.570554, 89.1056, 0.505598, 119862, 0.164307, 731.984, 0.0298507, 0.75495, 0.0
0.570412, 89.186, 0.510425, 119830, 0.164457, 731.974, 0.0298507, 0.779703, 0.0
0.570269, 89.2672, 0.514717, 119798, 0.164607, 731.964, 0.0298507, 0.804455, 0.0
0.570124, 89.349, 0.518488, 119767, 0.164759, 731.954, 0.0298507, 0.829208, 0.0
0.569979, 89.4315, 0.521751, 119734, 0.164913, 731.944, 0.0298507, 0.85396, 0.0
0.569832, 89.5144, 0.524521, 119702, 0.165067, 731.934, 0.0298507, 0.878713, 0.0
0.569685, 89.5977, 0.526807, 119669, 0.165221, 731.924, 0.0298507, 0.903465, 0.0
0.569538, 89.6814, 0.528623, 119637, 0.165377, 731.914, 0.0298507, 0.928218, 0.0
0.56939, 89.7653, 0.529977, 119604, 0.165533, 731.904, 0.0298507, 0.95297, 0.0
0.569242, 89.8495, 0.53088, 119571, 0.165689, 731.893, 0.0298507, 0.977723, 0.0
0.569093, 89.9338, 0.531341, 119538, 0.165846, 731.883, 0.0298507, 1.00248, 0.0
0.568945, 90.0182, 0.531368, 119505, 0.166003, 731.872, 0.0298507, 1.02723, 0.0
0.568796, 90.1025, 0.530971, 119472, 0.166159, 731.862, 0.0298507, 1.05198, 0.0
0.568648, 90.1868, 0.530156, 119440, 0.166316, 731.851, 0.0298507, 1.07673, 0.0
0.5685, 90.271, 0.528931, 119407, 0.166472, 731.84, 0.0298507, 1.10149, 0.0
0.568353, 90.355, 0.527303, 119374, 0.166629, 731.83, 0.0298507, 1.12624, 0.0
0.568206, 90.4387, 0.525278, 119341, 0.166784, 731.819, 0.0298507, 1.15099, 0.0
0.568059, 90.5221, 0.522864, 119309, 0.166939, 731.808, 0.0298507, 1.17574, 0.0
0.567914, 90.6051, 0.520066, 119277, 0.167093, 731.798, 0.0298507, 1.2005, 0.0
0.567769, 90.6877, 0.51689, 119245, 0.167247, 731.787, 0.0298507, 1.22525, 0.0
0.567625, 90.7698, 0.513343, 119213, 0.167399, 731.776, 0.0298507, 1.25, 0.0
0.567483, 90.8513, 0.509429, 119181, 0.167551, 731.766, 0.0298507, 1.27475, 0.0
0.567341, 90.9322, 0.505154, 119149, 0.167701, 731.755, 0.0298507, 1.2995, 0.0
0.567201, 91.0124, 0.500525, 119118, 0.16785, 731.745, 0.0298507, 1.32426, 0.0
0.567062, 91.0919, 0.495545, 119087, 0.167998, 731.734, 0.0298507, 1.34901, 0.0
0.566925, 91.1706, 0.490221, 119057, 0.168144, 731.724, 0.0298507, 1.37376, 0.0
0.566789, 91.2484, 0.484558, 119027, 0.168289, 731.714, 0.0298507, 1.39851, 0.0
0.566654, 91.3254, 0.478561, 118997, 0.168432, 731.703, 0.0298507, 1.42327, 0.0
0.566522, 91.4014, 0.472235, 118967, 0.168573, 731.693, 0.0298507, 1.44802, 0.0
0.566391, 91.4764, 0.465587, 118938, 0.168713, 731.683, 0.0298507, 1.47277, 0.0
0.566262, 91.5503, 0.45862, 118910, 0.16885, 731.673, 0.0298507, 1.49752, 0.0
0.566136, 91.6231, 0.451341, 118881, 0.168986, 731.664, 0.0298507, 1.52228, 0.0
0.566011, 91.6948, 0.443756, 118854, 0.169119, 731.654, 0.0298507, 1.54703, 0.0
0.565888, 91.7653, 0.435869, 118826, 0.16925, 731.644, 0.0298507, 1.57178, 0.0
0.565768, 91.8345, 0.427686, 118800, 0.169378, 731.635, 0.0298507, 1.59653, 0.0
0.56565, 91.9023, 0.419214, 118773, 0.169505, 731.626, 0.0298507, 1.62129, 0.0
0.565534, 91.9689, 0.410458, 118748, 0.169628, 731.617, 0.0298507, 1.64604, 0.0
0.565421, 92.034, 0.401423, 118722, 0.169749, 731.608, 0.0298507, 1.67079, 0.0
0.565311, 92.0977, 0.392117, 118698, 0.169868, 731.599, 0.0298507, 1.69554, 0.0
0.565203, 92.1599, 0.382544, 118674, 0.169983, 731.59, 0.0298507, 1.7203, 0.0
0.565098, 92.2205, 0.372712, 118650, 0.170096, 731.582, 0.0298507, 1.74505, 0.0
0.564996, 92.2796, 0.362626, 118627, 0.170206, 731.574, 0.0298507, 1.7698, 0.0
0.564896, 92.3371, 0.352294, 118605, 0.170313, 731.566, 0.0298507, 1.79455, 0.0
0.564799, 92.3928, 0.341721, 118584, 0.170417, 731.558, 0.0298507, 1.81931, 0.0
0.564706, 92.4469, 0.330914, 118563, 0.170517, 731.55, 0.0298507, 1.84406, 0.0
0.564615, 92.4993, 0.319881, 118543, 0.170615, 731.543, 0.0298507, 1.86881, 0.0
0.564528, 92.5499, 0.308628, 118523, 0.170709, 731.536, 0.0298507, 1.89356, 0.0
0.564443, 92.5986, 0.297162, 118504, 0.170799, 731.529, 0.0298507, 1.91832, 0.0
0.564362, 92.6455, 0.285491, 118486, 0.170886, 731.522, 0.0298507, 1.94307, 0.0
0.564285, 92.6906, 0.273621, 118469, 0.17097, 731.516, 0.0298507, 1.96782, 0.0
0.56421, 92.7337, 0.261561, 118452, 0.17105, 731.51, 0.0298507, 1.99257, 0.0
0.564139, 92.7748, 0.249317, 118436, 0.171127, 731.504, 0.0298507, 2.01733, 0.0
0.564071, 92.814, 0.236898, 118421, 0.1712, 731.499, 0.0298507, 2.04208, 0.0
0.564007, 92.8512, 0.224311, 118407, 0.171269, 731.493, 0.0298507, 2.06683, 0.0
0.563947, 92.8864, 0.211564, 118393, 0.171334, 731.488, 0.0298507, 2.09158, 0.0
0.56389, 92.9194, 0.198665, 118381, 0.171396, 731.484, 0.0298507, 2.11634, 0.0
0.563836, 92.9505, 0.185623, 118369, 0.171454, 731.479, 0.0298507, 2.14109, 0.0
0.563786, 92.9793, 0.172445, 118358, 0.171507, 731.475, 0.0298507, 2.16584, 0.0
0.56374, 93.0061, 0.159141, 118347, 0.171557, 731.471, 0.0298507, 2.19059, 0.0
0.563698, 93.0307, 0.145719, 118338, 0.171603, 731.468, 0.0298507, 2.21535, 0.0
0.563659, 93.0532, 0.132187, 118329, 0.171645, 731.464, 0.0298507, 2.2401, 0.0
0.563624, 93.0734, 0.118555, 118321, 0.171682, 731.462, 0.0298507, 2.26485, 0.0
0.563593, 93.0915, 0.104832, 118314, 0.171716, 731.459, 0.0298507, 2.2896, 0.0
0.563566, 93.1073, 0.0910269, 118308, 0.171745, 731.457, 0.0298507, 2.31436, 0.0
0.563543, 93.1209, 0.0771499, 118303, 0.17177, 731.455, 0.0298507, 2.33911, 0.0
0.563523, 93.1322, 0.0632108, 118299, 0.171792, 731.453, 0.0298507, 2.36386, 0.0
0.563507, 93.1413, 0.0492199, 118295, 0.171808, 731.452, 0.0298507, 2.38861, 0.0
0.563496, 93.1481, 0.0351877, 118293, 0.171821, 731.451, 0.0298507, 2.41337, 0.0
0.563488, 93.1527, 0.0211254, 118291, 0.17183, 731.45, 0.0298507, 2.43812, 0.0
0.563484, 93.155, 0.00704409, 118290, 0.171834, 731.45, 0.0298507, 2.46287, 0.0
0.584382, 78.9895, 0.0234648, 123514, 0.145209, 736.442, 0.0497512, 0.0123762, 0.0
0.584374, 78.9946, 0.069982, 123513, 0.145219, 736.442, 0.0497512, 0.0371287, 0.0
0.58436, 79.0032, 0.115631, 123510, 0.145235, 736.442, 0.0497512, 0.0618812, 0.0
0.584339, 79.0156, 0.160252, 123505, 0.145258, 736.442, 0.0497512, 0.0866337, 0.0
0.584311, 79.0316, 0.203654, 123499, 0.145287, 736.442, 0.0497512, 0.111386, 0.0
0.584277, 79.051, 0.245698, 123492, 0.145323, 736.442, 0.0497512, 0.136139, 0.0
0.584236, 79.0737, 0.286283, 123483, 0.145365, 736.441, 0.0497512, 0.160891, 0.0
0.58419, 79.0996, 0.325336, 123473, 0.145413, 736.441, 0.0497512, 0.185644, 0.0
0.584138, 79.1284, 0.362808, 123462, 0.145467, 736.44, 0.0497512, 0.210396, 0.0
0.58408, 79.16, 0.398674, 123450, 0.145525, 736.439, 0.0497512, 0.235149, 0.0
0.584017, 79.1944, 0.432924, 123437, 0.145589, 736.438, 0.0497512, 0.259901, 0.0
0.583949, 79.2313, 0.46556, 123422, 0.145657, 736.438, 0.0497512, 0.284653, 0.0
0.583877, 79.2706, 0.496599, 123407, 0.14573, 736.437, 0.0497512, 0.309406, 0.0
0.5838, 79.3122, 0.526062, 123390, 0.145807, 736.436, 0.0497512, 0.334158, 0.0
0.583718, 79.356, 0.553981, 123373, 0.145888, 736.434, 0.0497512, 0.358911, 0.0
0.583633, 79.4019, 0.580389, 123354, 0.145972, 736.433, 0.0497512, 0.383663, 0.0
0.583543, 79.4496, 0.605326, 123335, 0.146061, 736.432, 0.0497512, 0.408416, 0.0
0.583451, 79.4992, 0.628833, 123316, 0.146152, 736.43, 0.0497512, 0.433168, 0.0
0.583354, 79.5504, 0.650951, 123295, 0.146247, 736.429, 0.0497512, 0.457921, 0.0
0.583255, 79.6033, 0.671725, 123274, 0.146345, 736.427, 0.0497512, 0.482673, 0.0
0.583152, 79.6577, 0.691197, 123252, 0.146445, 736.426, 0.0497512, 0.507426, 0.0
0.583047, 79.7135, 0.70941, 123229, 0.146548, 736.424, 0.0497512, 0.532178, 0.0
0.582939, 79.7706, 0.726405, 123206, 0.146654, 736.422, 0.0497512, 0.556931, 0.0
0.582829, 79.8289, 0.742225, 123182, 0.146761, 736.42, 0.0497512, 0.581683, 0.0
0.582717, 79.8884, 0.756907, 123158, 0.146871, 736.418, 0.0497512, 0.606436, 0.0
0.582602, 79.949, 0.770491, 123134, 0.146983, 736.416, 0.0497512, 0.631188, 0.0
0.582485, 80.0105, 0.783012, 123109, 0.147096, 736.414, 0.0497512, 0.655941, 0.0
0.582367, 80.073, 0.794505, 123083, 0.147212, 736.412, 0.0497512, 0.680693, 0.0
0.582247, 80.1363, 0.805003, 123058, 0.147328, 736.41, 0.0497512, 0.705446, 0.0
0.582126, 80.2003, 0.814536, 123032, 0.147446, 736.407, 0.0497512, 0.730198, 0.0
0.582003, 80.265, 0.823135, 123005, 0.147566, 736.405, 0.0497512, 0.75495, 0.0
0.581879, 80.3304, 0.830826, 122979, 0.147686, 736.403, 0.0497512, 0.779703, 0.0
0.581754, 80.3963, 0.837637, 122952, 0.147808, 736.4, 0.0497512, 0.804455, 0.0
0.581628, 80.4628, 0.843591, 122925, 0.14793, 736.397, 0.0497512, 0.829208, 0.0
0.581501, 80.5296, 0.848711, 122898, 0.148054, 736.395, 0.0497512, 0.85396, 0.0
0.581374, 80.5968, 0.85302, 122870, 0.148178, 736.392, 0.0497512, 0.878713, 0.0
0.581245, 80.6644, 0.856538, 122843, 0.148302, 736.389, 0.0497512, 0.903465, 0.0
0.581117, 80.7322, 0.859283, 122815, 0.148427, 736.386, 0.0497512, 0.928218, 0.0
0.580988, 80.8002, 0.861274, 122787, 0.148552, 736.384, 0.0497512, 0.95297, 0.0
0.580859, 80.8683, 0.862528, 122759, 0.148678, 736.381, 0.0497512, 0.977723, 0.0
0.58073, 80.9365, 0.86306, 122732, 0.148804, 736.378, 0.0497512, 1.00248, 0.0
0.5806, 81.0048, 0.862886, 122704, 0.14893, 736.375, 0.0497512, 1.02723, 0.0
0.580471, 81.073, 0.86202, 122676, 0.149055, 736.371, 0.0497512, 1.05198, 0.0
0.580342, 81.1412, 0.860476, 122648, 0.149181, 736.368, 0.0497512, 1.07673, 0.0
0.580213, 81.2092, 0.858265, 122620, 0.149306, 736.365, 0.0497512, 1.10149, 0.0
0.580085, 81.2771, 0.855402, 122593, 0.149431, 736.362, 0.0497512, 1.12624, 0.0
